       0.300     140.000     100.000     313.005       Alpha_c    Bbag^1/4     Ms      Pr  ===>  E/A at P=0:     865.966


         nbar              rho           presion         ne            nu            nd            ns            mue           muu           mud           mus    
       [fm^-3]         [gm cm^-3]      [erg cm^-3]     [fm^-3]       [fm^-3]       [fm^-3]       [fm^-3]        [MeV]         [MeV]         [MeV]         [MeV]   

 1.12119841002E+00 2.22824972442E+15   5.44934E+35   1.13384E-07   1.12120E+00   1.14239E+00   1.10001E+00   2.95472E+00   4.71920E+02   4.74875E+02   4.74875E+02
 1.06717278764E+00 2.09280010347E+15   5.04786E+35   1.24032E-07   1.06717E+00   1.08831E+00   1.04604E+00   3.04447E+00   4.64215E+02   4.67260E+02   4.67260E+02
 1.01704426243E+00 1.96912267400E+15   4.68146E+35   1.35288E-07   1.01704E+00   1.03812E+00   9.95969E-01   3.13391E+00   4.56830E+02   4.59964E+02   4.59964E+02
 9.70481972170E-01 1.85602563217E+15   4.34658E+35   1.47152E-07   9.70482E-01   9.91496E-01   9.49468E-01   3.22296E+00   4.49749E+02   4.52972E+02   4.52972E+02
 9.27187075435E-01 1.75245291782E+15   4.04006E+35   1.59624E-07   9.27187E-01   9.48138E-01   9.06236E-01   3.31156E+00   4.42959E+02   4.46271E+02   4.46271E+02
 8.86889320761E-01 1.65746724878E+15   3.75910E+35   1.72701E-07   8.86889E-01   9.07776E-01   8.66002E-01   3.39963E+00   4.36446E+02   4.39846E+02   4.39846E+02
 8.49344015473E-01 1.57023544566E+15   3.50121E+35   1.86377E-07   8.49344E-01   8.70166E-01   8.28522E-01   3.48710E+00   4.30199E+02   4.33686E+02   4.33686E+02
 8.14329344220E-01 1.49001571672E+15   3.26418E+35   2.00645E-07   8.14330E-01   8.35086E-01   7.93573E-01   3.57391E+00   4.24204E+02   4.27778E+02   4.27778E+02
 7.81643993832E-01 1.41614662301E+15   3.04603E+35   2.15494E-07   7.81644E-01   8.02334E-01   7.60954E-01   3.65998E+00   4.18450E+02   4.22110E+02   4.22110E+02
 7.51105046874E-01 1.34803748625E+15   2.84500E+35   2.30913E-07   7.51105E-01   7.71729E-01   7.30481E-01   3.74527E+00   4.12928E+02   4.16674E+02   4.16674E+02
 7.22546111179E-01 1.28516003748E+15   2.65951E+35   2.46885E-07   7.22546E-01   7.43104E-01   7.01988E-01   3.82970E+00   4.07627E+02   4.11457E+02   4.11457E+02
 6.95815656903E-01 1.22704113466E+15   2.48816E+35   2.63395E-07   6.95816E-01   7.16307E-01   6.75324E-01   3.91324E+00   4.02537E+02   4.06450E+02   4.06450E+02
 6.70775536305E-01 1.17325640252E+15   2.32966E+35   2.80424E-07   6.70776E-01   6.91201E-01   6.50350E-01   3.99582E+00   3.97649E+02   4.01645E+02   4.01645E+02
 6.47299664592E-01 1.12342466943E+15   2.18290E+35   2.97952E-07   6.47300E-01   6.67659E-01   6.26940E-01   4.07739E+00   3.92955E+02   3.97032E+02   3.97032E+02
 6.25272842945E-01 1.07720309410E+15   2.04684E+35   3.15954E-07   6.25273E-01   6.45568E-01   6.04978E-01   4.15791E+00   3.88446E+02   3.92604E+02   3.92604E+02
 6.04589707177E-01 1.03428289025E+15   1.92057E+35   3.34409E-07   6.04590E-01   6.24820E-01   5.84359E-01   4.23733E+00   3.84115E+02   3.88352E+02   3.88352E+02
 5.85153787552E-01 9.94385570427E+14   1.80325E+35   3.53289E-07   5.85154E-01   6.05321E-01   5.64987E-01   4.31562E+00   3.79954E+02   3.84270E+02   3.84270E+02
 5.66876667056E-01 9.57259641187E+14   1.69415E+35   3.72569E-07   5.66877E-01   5.86981E-01   5.46772E-01   4.39274E+00   3.75956E+02   3.80349E+02   3.80349E+02
 5.49677226991E-01 9.22677691301E+14   1.59257E+35   3.92219E-07   5.49678E-01   5.69719E-01   5.29635E-01   4.46865E+00   3.72115E+02   3.76584E+02   3.76584E+02
 5.33480970082E-01 8.90433822643E+14   1.49791E+35   4.12210E-07   5.33481E-01   5.53462E-01   5.13499E-01   4.54332E+00   3.68424E+02   3.72967E+02   3.72967E+02
 5.18219412479E-01 8.60341380343E+14   1.40961E+35   4.32513E-07   5.18220E-01   5.38141E-01   4.98298E-01   4.61672E+00   3.64876E+02   3.69493E+02   3.69493E+02
 5.03829537070E-01 8.32230944626E+14   1.32718E+35   4.53096E-07   5.03830E-01   5.23692E-01   4.83967E-01   4.68882E+00   3.61467E+02   3.66156E+02   3.66156E+02
 4.90253301406E-01 8.05948551799E+14   1.25014E+35   4.73928E-07   4.90254E-01   5.10058E-01   4.70448E-01   4.75960E+00   3.58191E+02   3.62951E+02   3.62951E+02
 4.77437194309E-01 7.81354116163E+14   1.17809E+35   4.94977E-07   4.77438E-01   4.97185E-01   4.57689E-01   4.82905E+00   3.55042E+02   3.59871E+02   3.59871E+02
 4.65331835968E-01 7.58320028363E+14   1.11064E+35   5.16210E-07   4.65332E-01   4.85024E-01   4.45639E-01   4.89714E+00   3.52016E+02   3.56913E+02   3.56913E+02
 4.53891616866E-01 7.36729908841E+14   1.04745E+35   5.37596E-07   4.53892E-01   4.73530E-01   4.34253E-01   4.96385E+00   3.49107E+02   3.54071E+02   3.54071E+02
 4.43074371469E-01 7.16477497854E+14   9.88209E+34   5.59102E-07   4.43075E-01   4.62660E-01   4.23488E-01   5.02918E+00   3.46311E+02   3.51341E+02   3.51341E+02
 4.32841083025E-01 6.97465665869E+14   9.32622E+34   5.80695E-07   4.32842E-01   4.52375E-01   4.13307E-01   5.09311E+00   3.43624E+02   3.48718E+02   3.48718E+02
 4.23155616262E-01 6.79605530200E+14   8.80428E+34   6.02345E-07   4.23156E-01   4.42639E-01   4.03672E-01   5.15563E+00   3.41042E+02   3.46198E+02   3.46198E+02
 4.13984475112E-01 6.62815665537E+14   8.31384E+34   6.24019E-07   4.13985E-01   4.33418E-01   3.94550E-01   5.21674E+00   3.38560E+02   3.43777E+02   3.43777E+02
 4.05296582913E-01 6.47021397560E+14   7.85270E+34   6.45687E-07   4.05297E-01   4.24682E-01   3.85910E-01   5.27644E+00   3.36175E+02   3.41452E+02   3.41452E+02
 3.97063082828E-01 6.32154170149E+14   7.41883E+34   6.67318E-07   3.97064E-01   4.16402E-01   3.77723E-01   5.33471E+00   3.33883E+02   3.39218E+02   3.39218E+02
 3.89257156442E-01 6.18150977869E+14   7.01035E+34   6.88883E-07   3.89258E-01   4.08551E-01   3.69963E-01   5.39157E+00   3.31681E+02   3.37072E+02   3.37072E+02
 3.81853858753E-01 6.04953856444E+14   6.62556E+34   7.10354E-07   3.81855E-01   4.01103E-01   3.62604E-01   5.44701E+00   3.29564E+02   3.35011E+02   3.35011E+02
 3.74829967925E-01 5.92509424751E+14   6.26287E+34   7.31702E-07   3.74831E-01   3.94036E-01   3.55623E-01   5.50104E+00   3.27531E+02   3.33032E+02   3.33032E+02
 3.68163848377E-01 5.80768472707E+14   5.92083E+34   7.52901E-07   3.68165E-01   3.87328E-01   3.48999E-01   5.55366E+00   3.25578E+02   3.31132E+02   3.31132E+02
 3.61835325912E-01 5.69685590027E+14   5.59809E+34   7.73925E-07   3.61836E-01   3.80959E-01   3.42711E-01   5.60488E+00   3.23702E+02   3.29307E+02   3.29307E+02
 3.55825573732E-01 5.59218831459E+14   5.29342E+34   7.94750E-07   3.55826E-01   3.74910E-01   3.36741E-01   5.65471E+00   3.21900E+02   3.27554E+02   3.27554E+02
 3.50117008308E-01 5.49329414588E+14   5.00567E+34   8.15352E-07   3.50118E-01   3.69163E-01   3.31070E-01   5.70315E+00   3.20169E+02   3.25872E+02   3.25872E+02
 3.44693194165E-01 5.39981446761E+14   4.73378E+34   8.35709E-07   3.44694E-01   3.63702E-01   3.25683E-01   5.75023E+00   3.18507E+02   3.24257E+02   3.24257E+02
 3.39538756768E-01 5.31141678087E+14   4.47677E+34   8.55801E-07   3.39540E-01   3.58512E-01   3.20565E-01   5.79595E+00   3.16911E+02   3.22707E+02   3.22707E+02
 3.34639302737E-01 5.22779277781E+14   4.23372E+34   8.75608E-07   3.34640E-01   3.53578E-01   3.15700E-01   5.84032E+00   3.15380E+02   3.21220E+02   3.21220E+02
 3.29981346730E-01 5.14865631466E+14   4.00380E+34   8.95112E-07   3.29982E-01   3.48886E-01   3.11076E-01   5.88337E+00   3.13910E+02   3.19793E+02   3.19793E+02
 3.25552244386E-01 5.07374157280E+14   3.78623E+34   9.14296E-07   3.25553E-01   3.44424E-01   3.06679E-01   5.92510E+00   3.12499E+02   3.18424E+02   3.18424E+02
 3.21340130773E-01 5.00280138895E+14   3.58027E+34   9.33144E-07   3.21341E-01   3.40181E-01   3.02499E-01   5.96554E+00   3.11145E+02   3.17111E+02   3.17111E+02
 3.17333863856E-01 4.93560573741E+14   3.38524E+34   9.51641E-07   3.17335E-01   3.36144E-01   2.98523E-01   6.00470E+00   3.09847E+02   3.15851E+02   3.15851E+02
 3.13522972529E-01 4.87194034935E+14   3.20052E+34   9.69776E-07   3.13524E-01   3.32304E-01   2.94741E-01   6.04260E+00   3.08601E+02   3.14644E+02   3.14644E+02
 3.09897608825E-01 4.81160545558E+14   3.02552E+34   9.87536E-07   3.09899E-01   3.28650E-01   2.91144E-01   6.07927E+00   3.07407E+02   3.13487E+02   3.13487E+02
 3.06448503916E-01 4.75441464078E+14   2.85968E+34   1.00491E-06   3.06450E-01   3.25174E-01   2.87722E-01   6.11471E+00   3.06263E+02   3.12377E+02   3.12377E+02
 3.03166927593E-01 4.70019379838E+14   2.70251E+34   1.02189E-06   3.03168E-01   3.21866E-01   2.84467E-01   6.14896E+00   3.05166E+02   3.11314E+02   3.11314E+02
 3.00044650924E-01 4.64878017653E+14   2.55352E+34   1.03847E-06   3.00046E-01   3.18718E-01   2.81370E-01   6.18203E+00   3.04114E+02   3.10296E+02   3.10296E+02
 2.97073911805E-01 4.60002150633E+14   2.41225E+34   1.05464E-06   2.97075E-01   3.15723E-01   2.78424E-01   6.21396E+00   3.03107E+02   3.09321E+02   3.09321E+02
 2.94247383183E-01 4.55377520477E+14   2.27831E+34   1.07039E-06   2.94248E-01   3.12873E-01   2.75621E-01   6.24475E+00   3.02143E+02   3.08388E+02   3.08388E+02
 2.91558143698E-01 4.50990764526E+14   2.15128E+34   1.08573E-06   2.91559E-01   3.10161E-01   2.72954E-01   6.27443E+00   3.01220E+02   3.07494E+02   3.07494E+02
 2.88999650570E-01 4.46829348960E+14   2.03082E+34   1.10064E-06   2.89001E-01   3.07581E-01   2.70418E-01   6.30303E+00   3.00336E+02   3.06639E+02   3.06639E+02
 2.86565714532E-01 4.42881507561E+14   1.91656E+34   1.11513E-06   2.86567E-01   3.05126E-01   2.68004E-01   6.33056E+00   2.99490E+02   3.05821E+02   3.05821E+02
 2.84250476634E-01 4.39136185558E+14   1.80819E+34   1.12920E-06   2.84252E-01   3.02790E-01   2.65709E-01   6.35707E+00   2.98682E+02   3.05039E+02   3.05039E+02
 2.82048386787E-01 4.35582988076E+14   1.70540E+34   1.14283E-06   2.82050E-01   3.00569E-01   2.63527E-01   6.38255E+00   2.97908E+02   3.04291E+02   3.04291E+02
 2.79954183888E-01 4.32212132782E+14   1.60790E+34   1.15604E-06   2.79955E-01   2.98456E-01   2.61451E-01   6.40705E+00   2.97169E+02   3.03576E+02   3.03576E+02
 2.77962877403E-01 4.29014406366E+14   1.51544E+34   1.16883E-06   2.77964E-01   2.96447E-01   2.59477E-01   6.43059E+00   2.96463E+02   3.02894E+02   3.02894E+02
 2.76069730304E-01 4.25981124511E+14   1.42774E+34   1.18119E-06   2.76071E-01   2.94537E-01   2.57601E-01   6.45318E+00   2.95788E+02   3.02242E+02   3.02242E+02
 2.74270243238E-01 4.23104095047E+14   1.34458E+34   1.19314E-06   2.74271E-01   2.92721E-01   2.55818E-01   6.47486E+00   2.95144E+02   3.01619E+02   3.01619E+02
 2.72560139840E-01 4.20375584024E+14   1.26573E+34   1.20467E-06   2.72561E-01   2.90995E-01   2.54124E-01   6.49565E+00   2.94530E+02   3.01025E+02   3.01025E+02
 2.70935353099E-01 4.17788284440E+14   1.19097E+34   1.21578E-06   2.70937E-01   2.89356E-01   2.52514E-01   6.51557E+00   2.93943E+02   3.00459E+02   3.00459E+02
 2.69392012696E-01 4.15335287410E+14   1.12011E+34   1.22649E-06   2.69393E-01   2.87798E-01   2.50985E-01   6.53464E+00   2.93384E+02   2.99919E+02   2.99919E+02
 2.67926433244E-01 4.13010055571E+14   1.05294E+34   1.23680E-06   2.67928E-01   2.86319E-01   2.49533E-01   6.55290E+00   2.92851E+02   2.99404E+02   2.99404E+02
 2.66535103346E-01 4.10806398521E+14   9.89300E+33   1.24672E-06   2.66536E-01   2.84914E-01   2.48155E-01   6.57036E+00   2.92343E+02   2.98914E+02   2.98914E+02
 2.65214675434E-01 4.08718450142E+14   9.29009E+33   1.25624E-06   2.65216E-01   2.83581E-01   2.46847E-01   6.58705E+00   2.91860E+02   2.98447E+02   2.98447E+02
 2.63961956309E-01 4.06740647640E+14   8.71907E+33   1.26539E-06   2.63963E-01   2.82317E-01   2.45606E-01   6.60300E+00   2.91400E+02   2.98003E+02   2.98003E+02
 2.62773898335E-01 4.04867712170E+14   8.17840E+33   1.27415E-06   2.62775E-01   2.81117E-01   2.44429E-01   6.61821E+00   2.90962E+02   2.97580E+02   2.97580E+02
 2.61647591249E-01 4.03094630909E+14   7.66662E+33   1.28256E-06   2.61649E-01   2.79980E-01   2.43314E-01   6.63273E+00   2.90545E+02   2.97178E+02   2.97178E+02
 2.60580254526E-01 4.01416640467E+14   7.18235E+33   1.29060E-06   2.60582E-01   2.78903E-01   2.42257E-01   6.64657E+00   2.90150E+02   2.96796E+02   2.96796E+02
 2.59569230272E-01 3.99829211523E+14   6.72427E+33   1.29829E-06   2.59571E-01   2.77882E-01   2.41255E-01   6.65975E+00   2.89774E+02   2.96434E+02   2.96434E+02
 2.58611976592E-01 3.98328034604E+14   6.29113E+33   1.30564E-06   2.58613E-01   2.76915E-01   2.40307E-01   6.67229E+00   2.89417E+02   2.96090E+02   2.96090E+02
 2.57706061418E-01 3.96909006889E+14   5.88174E+33   1.31266E-06   2.57707E-01   2.76000E-01   2.39410E-01   6.68422E+00   2.89079E+02   2.95763E+02   2.95763E+02
 2.56849156741E-01 3.95568219990E+14   5.49496E+33   1.31935E-06   2.56850E-01   2.75135E-01   2.38562E-01   6.69556E+00   2.88758E+02   2.95454E+02   2.95454E+02
 2.56039033237E-01 3.94301948609E+14   5.12971E+33   1.32573E-06   2.56040E-01   2.74317E-01   2.37760E-01   6.70633E+00   2.88454E+02   2.95161E+02   2.95161E+02
 2.55273555251E-01 3.93106640016E+14   4.78496E+33   1.33180E-06   2.55275E-01   2.73544E-01   2.37002E-01   6.71655E+00   2.88167E+02   2.94883E+02   2.94883E+02
 2.54550676106E-01 3.91978904279E+14   4.45973E+33   1.33757E-06   2.54552E-01   2.72814E-01   2.36286E-01   6.72624E+00   2.87894E+02   2.94621E+02   2.94621E+02
 2.53868433733E-01 3.90915505196E+14   4.15308E+33   1.34306E-06   2.53870E-01   2.72125E-01   2.35611E-01   6.73543E+00   2.87637E+02   2.94372E+02   2.94372E+02
 2.53224946576E-01 3.89913351864E+14   3.86412E+33   1.34826E-06   2.53226E-01   2.71475E-01   2.34974E-01   6.74412E+00   2.87394E+02   2.94138E+02   2.94138E+02
 2.52618409775E-01 3.88969490845E+14   3.59198E+33   1.35320E-06   2.52620E-01   2.70862E-01   2.34373E-01   6.75234E+00   2.87164E+02   2.93916E+02   2.93916E+02
 2.52047091582E-01 3.88081098883E+14   3.33586E+33   1.35788E-06   2.52048E-01   2.70285E-01   2.33808E-01   6.76011E+00   2.86947E+02   2.93708E+02   2.93708E+02
 2.51509330027E-01 3.87245476127E+14   3.09497E+33   1.36230E-06   2.51511E-01   2.69742E-01   2.33275E-01   6.76744E+00   2.86743E+02   2.93511E+02   2.93511E+02
 2.51003529777E-01 3.86460039826E+14   2.86855E+33   1.36648E-06   2.51005E-01   2.69231E-01   2.32775E-01   6.77436E+00   2.86551E+02   2.93325E+02   2.93325E+02
 2.50528159209E-01 3.85722318454E+14   2.65591E+33   1.37043E-06   2.50530E-01   2.68751E-01   2.32304E-01   6.78088E+00   2.86370E+02   2.93151E+02   2.93151E+02
 2.50081747659E-01 3.85029946243E+14   2.45635E+33   1.37416E-06   2.50083E-01   2.68300E-01   2.31862E-01   6.78702E+00   2.86200E+02   2.92987E+02   2.92987E+02
 2.49662882848E-01 3.84380658084E+14   2.26921E+33   1.37767E-06   2.49664E-01   2.67877E-01   2.31448E-01   6.79279E+00   2.86040E+02   2.92833E+02   2.92833E+02
 2.49270208461E-01 3.83772284770E+14   2.09388E+33   1.38097E-06   2.49272E-01   2.67480E-01   2.31059E-01   6.79822E+00   2.85890E+02   2.92688E+02   2.92688E+02
 2.48902421879E-01 3.83202748563E+14   1.92975E+33   1.38408E-06   2.48904E-01   2.67109E-01   2.30695E-01   6.80331E+00   2.85749E+02   2.92552E+02   2.92552E+02
 2.48558272048E-01 3.82670059049E+14   1.77624E+33   1.38699E-06   2.48560E-01   2.66761E-01   2.30354E-01   6.80808E+00   2.85617E+02   2.92425E+02   2.92425E+02
 2.48236557469E-01 3.82172309270E+14   1.63281E+33   1.38973E-06   2.48238E-01   2.66436E-01   2.30036E-01   6.81255E+00   2.85494E+02   2.92307E+02   2.92307E+02
 2.47936124317E-01 3.81707672103E+14   1.49893E+33   1.39229E-06   2.47938E-01   2.66132E-01   2.29738E-01   6.81674E+00   2.85379E+02   2.92196E+02   2.92196E+02
 2.47655864657E-01 3.81274396875E+14   1.37408E+33   1.39468E-06   2.47657E-01   2.65849E-01   2.29461E-01   6.82064E+00   2.85271E+02   2.92092E+02   2.92092E+02
 2.47394714771E-01 3.80870806191E+14   1.25780E+33   1.39692E-06   2.47396E-01   2.65585E-01   2.29203E-01   6.82429E+00   2.85171E+02   2.91995E+02   2.91995E+02
 2.47151653576E-01 3.80495292960E+14   1.14960E+33   1.39901E-06   2.47153E-01   2.65340E-01   2.28962E-01   6.82769E+00   2.85078E+02   2.91905E+02   2.91905E+02
 2.46925701127E-01 3.80146317607E+14   1.04906E+33   1.40096E-06   2.46927E-01   2.65112E-01   2.28738E-01   6.83086E+00   2.84991E+02   2.91821E+02   2.91821E+02
 2.46715917201E-01 3.79822405452E+14   9.55741E+32   1.40277E-06   2.46717E-01   2.64900E-01   2.28531E-01   6.83380E+00   2.84910E+02   2.91744E+02   2.91744E+02
 2.46521399959E-01 3.79522144239E+14   8.69237E+32   1.40445E-06   2.46523E-01   2.64703E-01   2.28338E-01   6.83653E+00   2.84835E+02   2.91672E+02   2.91672E+02
 2.46341284671E-01 3.79244181824E+14   7.89159E+32   1.40601E-06   2.46343E-01   2.64521E-01   2.28160E-01   6.83906E+00   2.84766E+02   2.91605E+02   2.91605E+02
 2.46174742509E-01 3.78987223977E+14   7.15134E+32   1.40746E-06   2.46176E-01   2.64353E-01   2.27995E-01   6.84140E+00   2.84701E+02   2.91543E+02   2.91543E+02
 2.46020979397E-01 3.78750032317E+14   6.46805E+32   1.40879E-06   2.46022E-01   2.64198E-01   2.27843E-01   6.84357E+00   2.84642E+02   2.91486E+02   2.91486E+02
 2.45879234911E-01 3.78531422358E+14   5.83829E+32   1.41003E-06   2.45881E-01   2.64054E-01   2.27703E-01   6.84556E+00   2.84587E+02   2.91433E+02   2.91433E+02
 2.45748781235E-01 3.78330261653E+14   5.25882E+32   1.41116E-06   2.45750E-01   2.63923E-01   2.27574E-01   6.84740E+00   2.84537E+02   2.91385E+02   2.91385E+02
 2.45628922157E-01 3.78145468035E+14   4.72650E+32   1.41221E-06   2.45630E-01   2.63801E-01   2.27455E-01   6.84910E+00   2.84491E+02   2.91340E+02   2.91340E+02
 2.45518992108E-01 3.77976007944E+14   4.23836E+32   1.41317E-06   2.45520E-01   2.63690E-01   2.27346E-01   6.85065E+00   2.84448E+02   2.91299E+02   2.91299E+02
 2.45418355244E-01 3.77820894834E+14   3.79155E+32   1.41405E-06   2.45420E-01   2.63589E-01   2.27247E-01   6.85207E+00   2.84410E+02   2.91262E+02   2.91262E+02
 2.45326404552E-01 3.77679187649E+14   3.38336E+32   1.41486E-06   2.45328E-01   2.63496E-01   2.27156E-01   6.85337E+00   2.84374E+02   2.91227E+02   2.91227E+02
 2.45242561001E-01 3.77549989367E+14   3.01121E+32   1.41559E-06   2.45244E-01   2.63411E-01   2.27073E-01   6.85456E+00   2.84342E+02   2.91196E+02   2.91196E+02
 2.45166272710E-01 3.77432445607E+14   2.67263E+32   1.41626E-06   2.45168E-01   2.63334E-01   2.26997E-01   6.85563E+00   2.84312E+02   2.91168E+02   2.91168E+02
 2.45097014152E-01 3.77325743282E+14   2.36529E+32   1.41687E-06   2.45098E-01   2.63264E-01   2.26929E-01   6.85662E+00   2.84285E+02   2.91142E+02   2.91142E+02
 2.45034285374E-01 3.77229109310E+14   2.08694E+32   1.41742E-06   2.45036E-01   2.63201E-01   2.26867E-01   6.85750E+00   2.84261E+02   2.91119E+02   2.91119E+02
 2.44977611250E-01 3.77141809365E+14   1.83549E+32   1.41792E-06   2.44979E-01   2.63143E-01   2.26810E-01   6.85831E+00   2.84239E+02   2.91098E+02   2.91098E+02
 2.44926540735E-01 3.77063146670E+14   1.60891E+32   1.41836E-06   2.44928E-01   2.63092E-01   2.26760E-01   6.85903E+00   2.84219E+02   2.91078E+02   2.91078E+02
 2.44880646159E-01 3.76992460830E+14   1.40532E+32   1.41877E-06   2.44882E-01   2.63045E-01   2.26714E-01   6.85968E+00   2.84202E+02   2.91061E+02   2.91061E+02
 2.44839522521E-01 3.76929126686E+14   1.22289E+32   1.41913E-06   2.44841E-01   2.63004E-01   2.26674E-01   6.86026E+00   2.84186E+02   2.91046E+02   2.91046E+02
 2.44802786803E-01 3.76872553217E+14   1.05995E+32   1.41945E-06   2.44804E-01   2.62967E-01   2.26637E-01   6.86079E+00   2.84172E+02   2.91032E+02   2.91032E+02
 2.44770077296E-01 3.76822182451E+14   9.14863E+31   1.41974E-06   2.44771E-01   2.62934E-01   2.26605E-01   6.86125E+00   2.84159E+02   2.91020E+02   2.91020E+02
 2.44741052941E-01 3.76777488411E+14   7.86133E+31   1.42000E-06   2.44742E-01   2.62904E-01   2.26576E-01   6.86166E+00   2.84148E+02   2.91009E+02   2.91009E+02
